max value: 2.0050117010472084
pred_str: 3, 4, 5, 5, 4, 3, 2, 2, 2, 2, 2, 2, 2, 2, 2, 2, 2, 2, 2, 2, 2, 2, 2, 2, 2, 2, 2, 2, 2, 2, 2, 2, 2, 2, 2, 2, 2, 2, 2, 2, 2, 2, 2, 2, 2, 2, 2, 2, 2, 2, 2, 2, 2, 2, 2, 2, 2, 2, 2, 2, 2, 2, 2, 2, 2, 2, 2, 2, 2, 2, 2, 2, 2, 2, 2, 2, 2, 2, 2, 2, 2, 2, 2, 2, 2, 2, 2, 2, 2, 2, 2, 2, 2, 2, 2, 2, 2, 2, 2, 2, 2, 2, 2, 2, 2, 2, 2, 2, 2, 2, 2, 2, 2, 2, 2, 2, 2, 2, 2, 2, 2, 2, 2, 2, 2, 2, 2, 2, 2, 2, 2, 2, 2, 2, 2, 2, 2, 2, 2, 2, 2, 2, 2, 2, 2, 2, 2, 2, 2, 2, 2, 2, 2, 2, 2, 2, 2, 2, 2, 2, 2, 2, 2, 2, 2, 2, 2, 2, 2, 2, 2,
target_str: -75, -43, -32, -35, -32, -22, -10, -2, 1, 2, 0, -1, -3, -3, -13, -40, -58, -89, -73, -40, -33, -20, -22, -21, -17
mse: 0.6084941663011356
mae: 0.5958894775512303
rsme: 0.7800603606780283
----------------------
max value: 0.9935025565579053
pred_str: 45, 65, 45, 56, 61, 55, 55, 54, 55, 55, 55, 54, 54, 54, 54, 54, 54, 54, 54, 54, 54, 54, 54, 54, 54, 54, 54, 54, 54, 54, 54, 54, 54, 54, 54, 54, 54, 54, 54, 54, 54, 54, 54, 54, 54, 54, 54, 54, 54, 54, 54, 54, 54, 54, 54, 54, 54, 54, 54, 54, 54, 54, 54, 54, 54, 54, 54, 54, 54, 54, 54, 54, 54, 54, 54, 54, 54, 54, 54, 54, 54, 54, 54, 54, 54, 54, 54, 54, 54, 54, 54, 54, 54, 54, 54, 54, 54, 54, 54, 54, 54, 54, 54, 54, 54, 54, 54, 54, 54, 54, 54, 54, 54, 54, 54, 54, 54, 54, 54, 54, 54, 54, 54, 54, 54, 54, 54, 54, 
target_str: 80, 81, 82, 79, 77, 77, 78, 78, 76, 79, 86, 91, 88, 80, 74, 73, 75, 74, 77, 85, 103, 107, 90, 79, 75
mse: 0.0831765043949256
mae: 0.27301450254211235
rsme: 0.28840337098398416
----------------------
max value: 4.032283656964537
pred_str: 12, 14, 16, 18, 20, 22, 24, 26, 28, 30, 32, 34, 36, 38, 40, 42, 44, 46, 48, 50, 52, 54, 56, 58, 60, 62, 64, 66, 68, 70, 72, 74, 76, 78, 80, 82, 84, 86, 88, 90, 92, 94, 96, 98, 100, 102, 104, 106, 108, 110, 112, 114, 116, 118, 120, 122, 124, 126, 128, 130, 132, 134, 136, 138, 140, 142, 144, 146, 148, 150, 152, 154, 156, 158, 160, 162, 164, 166, 168, 170, 172, 174, 176, 178, 180, 182, 184, 186, 188, 190, 192, 194, 196, 198, 200, 202, 204, 206, 208, 210, 212, 214, 216, 218, 220, 222, 224, 226, 228, 230, 232, 2
target_str: 27, 19, 10, 0, -10, -19, -23, -23, -19, -12, -5, 4, 24, 62, 96, 93, 66, 42, 26, 19, 17, 17, 15, 12, 9
mse: 2.044575901272599
mae: 1.2887178567658657
rsme: 1.4298866742761815
----------------------
max value: 71.3028563089283
pred_str: 10, 10, 10, 10, 10, 10, 10, 10, 10, 10, 10, 10, 10, 10, 10, 10, 10, 10, 10, 10, 10, 10, 10, 10, 10, 10, 10, 10, 10, 10, 10, 10, 10, 10, 10, 10, 10, 10, 10, 10, 10, 10, 10, 10, 10, 10, 10, 10, 10, 10, 10, 10, 10, 10, 10, 10, 10, 10, 10, 10, 10, 10, 10, 10, 10, 10, 10, 10, 10, 10, 10, 10, 10, 10, 10, 10, 10, 10, 10, 10, 10, 10, 10, 10, 10, 10, 10, 10, 10, 10, 10, 10, 10, 10, 10, 10, 10, 10, 10, 10, 10, 10, 10, 10, 10, 10, 10, 10, 10, 10, 10, 10, 10, 10, 10, 10, 10, 10, 10, 10, 10, 10, 10, 10, 10, 10, 10, 10, 
target_str: -5, -6, -11, -15, -19, -21, -18, -15, -13, -12, -7, -5, -3, -1, -1, 0, 3, 11, 21, 36, 50, 61, 68, 66, 55
mse: 414.23191306602416
mae: 17.312333511807793
rsme: 20.352688104179855
----------------------
max value: 125.1331162831952
pred_str: 10, 24, 26, 28, 26, 25, 24, 23, 21, 18, 16, 12, 7, 3, -1, -4, -6, -7, -6, -4, -3, -2, -2, -2, -2, -2, -2, -2, -2, -2, -2, -2, -2, -2, -2, -2, -2, -2, -2, -2, -2, -2, -2, -2, -2, -2, -2, -2, -2, -2, -2, -2, -2, -2, -2, -2, -2, -2, -2, -2, -2, -2, -2, -2, -2, -2, -2, -2, -2, -2, -2, -2, -2, -2, -2, -2, -2, -2, -2, -2, -2, -2, -2, -2, -2, -2, -2, -2, -2, -2, -2, -2, -2, -2, -2, -2, -2, -2, -2, -2, -2, -2, -2, -2, -2, -2, -2, -2, -2, -2, -2, -2, -2, -2, -2, -2, -2, -2, -2, -2, -2, -2, -2, -2, -2, -2, -2, -2, -2, -2, -2, -2, -2, -2, -2, -2, -2, -2, -2, -2, -2, -2, -2, -2, -2, -2, -2, -2, -2, -2, -2, -2, -2, -2, -2, -2, -2, -2, -2, -2, -2, -2, -2, -2, -2, -2, -2,
target_str: 37, 42, 49, 59, 68, 72, 74, 72, 68, 65, 59, 51, 43, 35, 28, 22, 13, 2, -15, -37, -59, -75, -84, -84, -78
mse: 3278.40891567158
mae: 51.304577676110036
rsme: 57.25739179941381
----------------------
max value: 154.72178554216515
pred_str: 0.1, -0.1, 0.1, -0.1, 0.1, -0.1, 0.1, -0.1, 0.1, -0.1, 0.1, -0.1, 0.1, -0.1, 0.1, -0.1, 0.1, -0.1, 0.1, -0.1, 0.1, -0.1, 0.1, -0.1, 0.1, -0.1, 0.1, -0.1, 0.1, -0.1, 0.1, -0.1, 0.1, -0.1, 0.1, -0.1, 0.1, -0.1, 0.1, -0.1, 0.1, -0.1, 0.1, -0.1, 0.1, -0.1, 0.1, -0.1, 0.1, -0.1, 0.1, -0.1, 0.1, -0.1, 0.1, -0.1, 0.1, -0.1, 0.1, -0.1, 0.1, -0.1, 0.1, -0.1, 0.1, -0.1, 0.1, -0.1, 0.1, -0.1, 0.1, -0.1, 0.1, -0.1, 0.1, -0.1, 0.1, -0.1, 0.1, -0.1, 0.1, -0.1, 0.1, -0.1, 0.1, -0.1, 0.1, -0.1, 0.1, -0.1, 0.1, -0.1, 0.1, -0.1, 0.1, -0.1, 0.1, -0.1, 0.1, -0.1, 0.1, -0.1, 0.
target_str: -97, -92, -83, -70, -53, -31, -11, 4, 15, 20, 20, 18, 14, 13, 13, 15, 17, 19, 18, 18, 15, 10, 5, 2, 0
mse: 3575.4894231151416
mae: 41.669671282215916
rsme: 59.7953963371357
----------------------
max value: 222.60005948993262
pred_str: 10/1/2016: 28, 37, 39, 42, 44, 46, 47, 48, 49, 51, 54, 55, 55, 53, 48, 41, 27, 14, -1
target_str: -5, -2, -5, -11, -14, -10, 2, 18, 35, 46, 49, 44, 33, 18, 3, -11, -24, -31, -35, -34, -31, -27, -23, -19, -17
mse: 6117.341896282474
mae: 71.23201903677845
rsme: 78.21343807992636
----------------------
max value: 109.74012483367467
pred_str: 49, 62, 65, 63, 61, 56, 53, 46, 40, 34, 29, 26, 24, 22, 22, 22, 22, 22, 22, 22, 22, 22, 22, 22, 22, 22, 22, 22, 22, 22, 22, 22, 22, 22, 22, 22, 22, 22, 22, 22, 22, 22, 22, 22, 22, 22, 22, 22, 22, 22, 22, 22, 22, 22, 22, 22, 22, 22, 22, 22, 22, 22, 22, 22, 22, 22, 22, 22, 22, 22, 22, 22, 22, 22, 22, 22, 22, 22, 22, 22, 22, 22, 22, 22, 22, 22, 22, 22, 22, 22, 22, 22, 22, 22, 22, 22, 22, 22, 22, 22, 22, 22, 22, 22, 22, 22, 22, 22, 22, 22, 22, 22, 22, 22, 22, 22, 22, 22, 22, 22, 22, 22, 22, 22, 22, 22, 22, 22, 
target_str: -29, -33, -26, -12, 4, 19, 27, 28, 22, 13, 3, -4, -9, -17, -30, -35, -33, -30, -26, -22, -19, -17, -14, -9, -4
mse: 2969.344362412742
mae: 49.383056175153605
rsme: 54.49169076485646
----------------------
max value: 0.6406635239223756
pred_str: 10/17, 10/24, 10/31, 10/31, 10/31, 10/31, 10/31, 10/31, 10/31, 10/31, 10/31, 10/31, 10/31, 10/31, 10/31, 10/31, 10/31, 10/31, 10/31, 10/31, 10/31, 10/31, 10/31, 10/31, 10/31, 10/31, 10/31, 10/31, 10/31, 10/31, 10/31, 10/31, 10/31, 10/31, 10/31, 10/31, 10/31, 10/31, 10/31, 10/31, 10/31, 10/31, 10/31, 10/31, 10/31, 10/31, 10/31, 10/31, 10/31, 10/31, 10/31, 10/31, 10/31, 10/31, 10/31, 10/31, 10/31, 10/31, 10/31, 10/31, 10/31, 10/31, 10/31, 10/31, 10/31, 10/31, 10/31, 10/31, 10/31, 10/31, 10/31, 10/31, 10/31, 1
target_str: 16, 23, 29, 34, 43, 42, 41, 38, 36, 40, 52, 66, 76, 84, 80, 82, 66, 50, 32, 14, -2, -16, -22, -29, -36
mse: 0.09252850824142535
mae: 0.2685661492282598
rsme: 0.30418499016457956
----------------------
max value: 203.76651784696872
pred_str: 20/12/2019 00:00:00 00:01:00 00:02:00 00:03:00 00:04:00 00:05:00 00:06:00 00:07:00 00:08:00 00:09:00 00:10:00 00:11:00 00:12:00 00:13:00 00:14:00 00:15:00 00:16:00 00:17:00 00:18:00 00:19:00 00:20:00 00:21:00 00:22:00 00:23:00 00:24:00 00:25:00 00:26:00 00:27:00 00:28:00 00:29:00 00:30:00 00:31:00 00:32:00 00:33:00 00:34:00 00:35:00 00:36:00 00:37:00 00:38:00 00:39:00 00:40:00 00:41:00 00:42:00 00:43:00 00:44:00 00:45:00 00:46:00 00:47:00 00:48:00 00:49:00 00:50:00 00:51:00 00:52:00 00:53:00 00:54:00 00:55:
target_str: -24, -18, -10, -1, 6, 14, 20, 28, 40, 55, 68, 75, 75, 70, 60, 46, 27, 8, -6, -18, -24, -27, -28, -26, -23
mse: 6307.672910233991
mae: 64.96076588961363
rsme: 79.42085941510575
----------------------
max value: 3.429755126072989
pred_str: 13, 20, 28, 35, 42, 49, 56, 63, 69, 75, 80, 85, 88, 90, 90, 90, 90, 90, 90, 90, 90, 90, 90, 90, 90, 90, 90, 90, 90, 90, 90, 90, 90, 90, 90, 90, 90, 90, 90, 90, 90, 90, 90, 90, 90, 90, 90, 90, 90, 90, 90, 90, 90, 90, 90, 90, 90, 90, 90, 90, 90, 90, 90, 90, 90, 90, 90, 90, 90, 90, 90, 90, 90, 90, 90, 90, 90, 90, 90, 90, 90, 90, 90, 90, 90, 90, 90, 90, 90, 90, 90, 90, 90, 90, 90, 90, 90, 90, 90, 90, 90, 90, 90, 90, 90, 90, 90, 90, 90, 90, 90, 90, 90, 90, 90, 90, 90, 90, 90, 90, 90, 90, 90, 90, 90, 90, 90, 90, 
target_str: 2, 0, -3, -4, -3, 0, 9, 25, 45, 68, 83, 74, 56, 39, 27, 19, 14, 11, 9, 9, 11, 11, 11, 11, 18
mse: 3.7528907276469323
mae: 1.7107618568852072
rsme: 1.9372379119888534
----------------------
max value: 132.69174574791145
pred_str: 00000000000000000000000000000000000000000000000000000000000000000000000000000000000000000000000000000000000000000000000000000000000000000000000000000000000000000000000000000000000000000000000000000000000000000000000000000000000000000000000000000000000000000000000000000000000000000000000000000000000000000000000000000000000000000000000000000000000000000000000000000000000000000000000000000000000000000000000000000000000000000000000000000000000000000000000000000000000000000000000000000000000000000000000000000000
target_str: -32, -14, 5, 23, 37, 47, 57, 66, 74, 78, 75, 61, 40, 14, -13, -36, -45, -36, -18, 1, 17, 27, 30, 27, 23
mse: 3095.0463591064345
mae: 47.55672167605146
rsme: 55.63314083445617
----------------------
max value: 1.3801877277474726
pred_str: 14, 24, 31, 40, 49, 59, 69, 82, 96, 100, 92, 88, 85, 79, 74, 70, 66, 60, 58, 53, 57, 49, 43, 40, 39, 35, 32, 29, 26, 25, 22, 22, 20, 21, 23, 26, 28, 29, 29, 31, 32, 34, 34, 34, 34, 34, 34, 34, 34, 34, 34, 34, 34, 34, 34, 34, 34, 34, 34, 34, 34, 34, 34, 34, 34, 34, 34, 34, 34, 34, 34, 34, 34, 34, 34, 34, 34, 34, 34, 34, 34, 34, 34, 34, 34, 34, 34, 34, 34, 34, 34, 34, 34, 34, 34, 34, 34, 34, 34, 34, 34, 34, 34, 34, 34, 34, 34, 34, 34, 34, 34, 34, 34, 34, 34, 34, 34, 34, 34, 34, 34, 34, 34, 34, 34, 34, 34, 34,
target_str: -43, -5, 78, 53, 30, 26, 10, 29, 44, 47, 45, 40, 40, 49, 64, 87, 105, 112, 118, 83, 76, 66, 44, 15, -19
mse: 0.311743667346245
mae: 0.504044558173377
rsme: 0.5583401000700603
----------------------
max value: 2.4562661091401266
pred_str: 10, 11, 12, 13, 14, 15, 16, 17, 18, 19, 20, 21, 22, 23, 24, 25, 26, 27, 28, 29, 30, 31, 32, 33, 34, 35, 36, 37, 38, 39, 40, 41, 42, 43, 44, 45, 46, 47, 48, 49, 50, 51, 52, 53, 54, 55, 56, 57, 58, 59, 60, 61, 62, 63, 64, 65, 66, 67, 68, 69, 70, 71, 72, 73, 74, 75, 76, 77, 78, 79, 80, 81, 82, 83, 84, 85, 86, 87, 88, 89, 90, 91, 92, 93, 94, 95, 96, 97, 98, 99, 100, 101, 102, 103, 104, 105, 106, 107, 108, 109, 110, 111, 112, 113, 114, 115, 116, 117, 118, 119, 120, 121, 122, 123, 124, 125, 126, 127, 128, 129, 13
target_str: 73, 103, 86, 61, 50, 39, 28, 17, 8, 1, -5, -11, -16, -19, -19, -13, -4, 6, 22, 48, 81, 101, 90, 69, 51
mse: 1.0857665790487068
mae: 0.8872033186214137
rsme: 1.0420012375466292
----------------------
max value: 0.4657017531985316
pred_str: 00:00, 00:10, 00:20, 00:30, 00:40, 00:50, 01:00, 01:10, 01:20, 01:30, 01:40, 01:50, 02:00, 02:10, 02:20, 02:30, 02:40, 02:50, 03:00, 03:10, 03:20, 03:30, 03:40, 03:50, 04:00, 04:10, 04:20, 04:30, 04:40, 04:50, 05:00, 05:10, 05:20, 05:30, 05:40, 05:50, 06:00, 06:10, 06:20, 06:30, 06:40, 06:50, 07:00, 07:10, 07:20, 07:30, 07:40, 07:50, 08:00, 08:10, 08:20, 08:30, 08:40, 08:50, 09:00, 09:10, 09:20, 09:30, 09:40, 09:50, 10:00, 10:10, 10:20, 10:30, 10:40, 10:50, 11:00, 11:10, 11:20, 11:30, 11:40, 11:50, 12:00, 1
target_str: 58, 58, 63, 65, 68, 74, 80, 87, 92, 92, 91, 89, 84, 77, 61, 60, 49, 41, 45, 43, 38, 33, 28, 25, 23
mse: 0.09086239087117692
mae: 0.28370550804854544
rsme: 0.30143389137782256
----------------------
max value: 1.1157594302725051
pred_str: 13, 24, 36, 48, 62, 73, 85, 96, 106, 115, 123, 130, 136, 141, 145, 149, 152, 155, 158, 161, 163, 165, 166, 167, 168, 170, 172, 174, 177, 180, 182, 185, 187, 190, 193, 195, 197, 199
target_str: 48, 55, 60, 60, 54, 46, 36, 25, 17, 10, 8, 9, 13, 18, 21, 23, 24, 27, 31, 33, 33, 31, 27, 24, 23
mse: 1.3962763711789308
mae: 1.06443449647997
rsme: 1.1816413885688546
----------------------
max value: 84.48096819731116
pred_str: 12, 26, 40, 48, 56, 63, 67, 66, 60, 51, 36, 17, 3, 10, 16, 23, 30, 38, 46, 54, 62, 69, 77, 78, 76, 71, 62, 49, 35, 15, 2, 5, 10, 16, 23, 30, 38, 46, 54, 62, 69, 77, 78, 76, 71, 62, 49, 35, 15, 2, 5, 10, 16, 23, 30, 38, 46, 54, 62, 69, 77, 78, 76, 71, 62, 49, 35, 15, 2, 5, 10, 16, 23, 30, 38, 46, 54, 62, 69, 77, 78, 76, 71, 62, 49, 35, 15, 2, 5, 10, 16, 23, 30, 38, 46, 54, 62, 69, 77, 78, 76, 71, 62, 49, 35, 15, 2, 5, 10, 16, 23, 30, 38, 46, 54, 62, 69, 77, 78, 76, 71, 62, 49, 35, 15, 2, 5, 10, 16, 23, 30, 3
target_str: 20, 27, 36, 44, 50, 51, 45, 35, 25, 14, 4, -4, -12, -19, -25, -28, -25, -19, -15, -10, -7, -7, -7, -7, -2
mse: 1602.1784857982684
mae: 33.04895475878812
rsme: 40.02722180964185
----------------------
max value: 323.8033973066421
pred_str: 18, 25, 27, 30, 31, 32, 33, 34, 35, 35, 36, 37, 37, 38, 39, 39, 40, 40, 41, 41, 42, 43, 43, 44, 44, 45, 46, 46, 47, 47, 48, 48, 49, 49, 50, 50, 51, 51, 52, 52, 53, 53, 54, 54, 55, 55, 56, 56, 57, 57, 58, 58, 59, 59, 60, 60, 61, 61, 62, 62, 63, 63, 64, 64, 65, 65, 66, 66, 67, 67, 68, 68, 69, 69, 70, 70, 71, 71, 72, 72, 73, 73, 74, 74, 75, 75, 76, 76, 77, 77, 78, 78, 79, 79, 80, 80, 81, 81, 82, 82, 83, 83, 84, 84, 85, 85, 86, 86, 87, 87, 88, 88, 89, 89, 90, 90, 91, 91, 92, 92, 93, 93, 94, 94, 95, 95, 96, 96, 
target_str: -17, -4, 4, 8, 9, 8, 7, 6, 6, 7, 5, -2, -24, -49, -70, -80, -83, -80, -73, -58, -35, -11, 10, 28, 44
mse: 45946.35167327071
mae: 174.5947918277414
rsme: 214.35100110162935
----------------------
max value: 1.5942111304401607
pred_str: 2018 2019 2020 2021 2022 2023 2024 2025 2026 2027 2028 2029 2030 2031 2032 2033 2034 2035 2036 2037 2038 2039 2040 2041 2042 2043 2044 2045 2046 2047 2048 2049 2050 2051 2052 2053 2054 2055 2056 2057 2058 2059 2060 2061 2062 2063 2064 2065 2066 2067 2068 2069 2070 2071 2072 2073 2074 2075 2076 2077 2078 2079 2080 2081 2082 2083 2084 2085 2086 2087 2088 2089 2090 2091 2092 2093 2094 2095 2096 2097 2098 2099 2100 2101 2102 2103 2104 2105 2106 2107 2108 2109 2110 2111 2112 2113 2114 2115 2116 2117 2118 2119 21
target_str: -29, -16, -9, -4, 0, 3, -2, -16, -26, -39, -52, -59, -59, -69, -54, -29, -26, -13, -1, 6, 10, 16, 23, 27, 26
mse: 0.25431356942614836
mae: 0.3915382536361035
rsme: 0.5042951213586627
----------------------
max value: 1.2285575361135035
pred_str: 1st PPG = -99, 2nd PPG = -93, 3rd PPG = -90
target_str: 66, 58, 51, 37, 18, 0, -12, -20, -28, -39, -50, -57, -65, -75, -86, -86, -79, -80, -71, -57, -42, -20, -2, 4, 6
mse: 0.41298933737888566
mae: 0.5449881230199501
rsme: 0.6426424646558035
----------------------
max value: 68.76971772643536
pred_str: 9/15, 9/22, 9/29, 10/6, 10/13, 10/20, 10/27, 10/31, 11/1, 11/8, 11/15, 11/22, 11/29, 11/30, 12/1, 12/7, 12/14, 12/21, 12/28, 12/31, 1/4, 1/11, 1/18, 1/25, 1/28, 2/1, 2/8, 2/15, 2/22, 2/29, 3/6, 3/13, 3/20, 3/27, 3/30, 4/10, 4/17, 4/24, 4/31, 5/1, 5/8, 5/15, 5/22, 5/29, 5/30, 6/6, 6/13, 6/20, 6/27, 6/28, 7/4, 7/11, 7/18, 7/25, 7/31, 8/1, 8/8, 8/15, 8/22, 8/29, 9/5, 9/12, 9/19, 9/26, 10/3, 10/10, 10/17, 10/24, 10/31, 10/31, 10/31, 10/31, 10/31, 10/31, 10/31, 10/31, 10/31, 10/31, 10/31, 10/31, 10/31, 10/31, 10
target_str: 43, 29, 14, -1, -13, -21, -23, -22, -18, -13, -9, -7, -7, -7, -9, -16, -19, -27, -34, -40, -42, -44, -42, -36, -24
mse: 302.48436991206336
mae: 15.12933789981578
rsme: 17.392077791686173
----------------------
max value: 0.7033805557760526
pred_str: 12/31/2016 1/1/2017 1/2/2017 1/3/2017 1/4/2017 1/5/2017 1/6/2017 1/7/2017 1/8/2017 1/9/2017 1/10/2017 1/11/2017 1/12/2017 1/13/2017 1/14/2017 1/15/2017 1/16/2017 1/17/2017 1/18/2017 1/19/2017 1/20/2017 1/21/2017 1/22/2017 1/23/2017 1/24/2017 1/25/2017 1/26/2017 1/27/2017 1/28/2017 1/29/2017 1/30/2017 1/31/2017 2/1/2017 2/2/2017 2/3/2017 2/4/2017 2/5/2017 2/6/2017 2/7/2017 2/8/2017 2/9/2017 2/10/2017 2/11/2017 2/12/2017 2/13/2017 2/14/2017 2/15/2017 2/16/2017 2/17/2017 2/18/2017 2/19/2017 2/20/2017 2/21/2017
target_str: 76, 76, 67, 63, 69, 76, 74, 67, 60, 56, 55, 55, 55, 59, 66, 78, 81, 89, 90, 75, 61, 49, 42, 34, 28
mse: 0.2142776736778522
mae: 0.45044490791898417
rsme: 0.46290136495570217
----------------------
max value: 115.00403143508265
pred_str: 21/9/2017
target_str: 52, 40, 22, 2, -18, -38, -55, -68, -76, -79, -76, -68, -50, -23, 8, 38, 61, 70, 67, 58, 44, 28, 13, 1, -9
mse: 3206.387994180209
mae: 48.94571577877118
rsme: 56.6249767697984
----------------------
max value: 91.41004782265443
pred_str: 44, 47, 46, 44, 42, 40, 38, 36, 34, 32, 30, 28, 27, 26, 25, 24, 23, 22, 21, 20, 19, 18, 17, 16, 15, 14, 13, 12, 11, 10, 9, 8, 7, 6, 5, 4, 3, 2, 1, 0, -1, -2, -3, -5, -7, -8, -9, -11, -13, -15, -17, -19, -21, -23, -25, -27, -29, -31, -33, -35, -37, -39, -41, -43, -45, -47
target_str: -18, -22, -24, -24, -22, -18, -11, 0, 17, 34, 50, 58, 57, 48, 34, 19, 5, -5, -13, -15, -16, -13, -8, -4, -2
mse: 1313.6315332722786
mae: 31.18910831708971
rsme: 36.24405514387537
----------------------
max value: 86.97451584571705
pred_str: 25/09/2016: 0 10 20 30 40 50 60 70 80 90 100 110 120 130 140 150 160 170 180 190 200 210 220 230 240 250 260 270 280 290 300 310 320 330 340 350 360 370 380 390 400 410 420 430 440 450 460 470 480 490 500 510 520 530 540 550 560 570 580 590 600 610 620 630 640 650 660 670 680 690 700 710 720 730 740 750 760 770 780 790 800 810 820 830 840 850 860 870 880 890 900 910 920 930 940 950 960 970 980 990 1000 1010 1020 1030 1040 1050 1060 1070 1080 1090 1100 1110 1120 1130 1140 1150 1160 1170 1180 1190 1200 1210 1
target_str: -63, -64, -62, -53, -43, -33, -22, -15, -8, 2, 14, 29, 41, 48, 51, 53, 49, 44, 39, 32, 25, 21, 17, 12, 7
mse: 1128.4820165361236
mae: 29.46696596852894
rsme: 33.59288639780934
----------------------
max value: 117.07380176672444
pred_str: -1, -1, -1, -1, -1, -1, -1, -1, -1, -1, -1, -1, -1, -1, -1, -1, -1, -1, -1, -1, -1, -1, -1, -1, -1, -1, -1, -1, -1, -1, -1, -1, -1, -1, -1, -1, -1, -1, -1, -1, -1, -1, -1, -1, -1, -1, -1, -1, -1, -1, -1, -1, -1, -1, -1, -1, -1, -1, -1, -1, -1, -1, -1, -1, -1, -1, -1, -1, -1, -1, -1, -1, -1, -1, -1, -1, -1, -1, -1, -1, -1, -1, -1, -1, -1, -1, -1, -1, -1, -1, -1, -1, -1, -1, -1, -1, -1, -1, -1, -1, -1, -1, -1, -1, -1, -1, -1, -1, -1, -1, -1, -1, -1, -1, -1, -1, -1, -1, -1, -1, -1, -1, -1, -1, -1, -1, -1, -1, -1, -1, -1, -1, -1, -1, -1, -1, -1, -1, -1, -1, -1, -1, -1, -1, -1, -1, -1, -1, -1, -1, -1, -1, -1, -1, -1, -1, -1, -1, -1, -1, -1, -1, -1, -1, -1, -1, -1, -1, -1, -1, -1
target_str: -46, -47, -46, -41, -31, -14, 6, 30, 51, 64, 73, 75, 72, 68, 61, 49, 34, 13, -10, -32, -49, -58, -53, -37, -17
mse: 3110.337586841616
mae: 50.388564280398214
rsme: 55.770400633683956
----------------------
max value: 1.2677365602192732
pred_str: 20/12/2016 09:00:00 - 09:15:00 09:15:00 - 09:30:00 09:30:00 - 09:45:00 09:45:00 - 10:00:00 10:00:00 - 10:15:00 10:15:00 - 10:30:00 10:30:00 - 10:45:00 10:45:00 - 11:00:00 11:00:00 - 11:15:00 11:15:00 - 11:30:00 11:30:00 - 11:45:00 11:45:00 - 12:00:00 12:00:00 - 12:15:00 12:15:00 - 12:30:00 12:30:00 - 12:45:00 12:45:00 - 13:00:00 13:00:00 - 13:15:00 13:15:00 - 13:30:00 13:30:00 - 13:45:00 13:45:00 - 14:00:00 14:00:00 - 14:15:00 14:15:00 - 14:30:00 14:30:00 - 14:45:00 14:45:00 - 15:00:00 15:00:00 - 15:15:00 15:15:00 - 15:30:00 15:30:0
target_str: 5, -5, 7, 31, 22, 35, 66, 49, 53, 60, 42, 12, 3, 18, 13, 2, 3, 21, 33, 42, 46, 25, 33, 32, 26
mse: 0.17474285605848514
mae: 0.34685272287599317
rsme: 0.41802255448538317
----------------------
max value: 1.5774595060334473
pred_str: 18, 19, 19, 20, 20, 20, 20, 21, 21, 21, 21, 21, 21, 22, 22, 22, 22, 23, 23, 23, 23, 23, 23, 23, 24, 24, 24, 24, 24, 24, 24, 24, 25, 25, 25, 25, 25, 25, 25, 25, 25, 25, 25, 26, 26, 26, 26, 26, 26, 26, 26, 26, 26, 26, 26, 26, 26, 26, 26, 26, 26, 26, 26, 26, 26, 26, 26, 26, 26, 26, 26, 26, 26, 26, 26, 26, 26, 26, 26, 26, 26, 26, 26, 26, 26, 26, 26, 26, 26, 26, 26, 26, 26, 26, 26, 26, 26, 26, 26, 26, 26, 26, 26, 26, 26, 26, 26, 26, 26, 26, 26, 26, 26, 26, 26, 26, 26, 26, 26, 26, 26, 26, 26, 26, 26, 26, 26, 26, 
target_str: 92, 98, 87, 76, 57, 37, 17, 0, -13, -22, -23, -19, -13, -9, -6, -4, 15, 46, 55, 47, 37, 39, 41, 34, 28
mse: 0.3463225651661638
mae: 0.49469130109208903
rsme: 0.5884917715364963
----------------------
max value: 3.53249676378062
pred_str: 2006-10-15 11:50:00 -0.2 -0.1 0.1 0.2 0.2 0.1 0.0 0.0 -0.1 -0.1 -0.1 -0.2 -0.1 -0.1 -0.1 -0.2 -0.1 -0.1 -0.1 -0.2 -0.1 -0.1 -0.1 -0.2 -0.1 -0.1 -0.1 -0.2 -0.1 -0.1 -0.1 -0.2 -0.1 -0.1 -0.1 -0.2 -0.1 -0.1 -0.1 -0.2 -0.1 -0.1 -0.1 -0.2 -0.1 -0.1 -0.1 -0.2 -0.1 -0.1 -0.1 -0.2 -0.1 -0.1 -0.1 -0.2 -0.1 -0.1 -0.1 -0.2 -0.1 -0.1 -0.1 -0.2 -0.1 -0.1 -0.1 -0.2 -0.1 -0.1 -0.1 -0.2 -0.1 -0.1 -0.1 -0.2 -0.1 -0.1 -0.1 -0.2 -0.1 -0.1 -0.1 -0.2 -0.1 -0.1 -0.1 -0.2 -0.1 -0.1 -0.1 -0.2 -0.1 -0.1 -0.1 -0.2 -0.1 -0.1 -0.1 -0.2 -0.1 -0.1 -0.1 -0.2 -0.1 -0.1 -0.1 -0.2 -0.1 -0.1 -0.1 -0.2 -0.1 -0.1 -0.1 -0.2 -0.1 -0.1 -0.1 -0.2 -0.1 -0.1 -0.1 -
target_str: 12, 9, 9, 6, 2, 0, -1, -1, 1, 8, 19, 39, 67, 86, 79, 62, 49, 40, 32, 25, 19, 14, 8, 3, 0
mse: 1.5246272091162094
mae: 0.8350822349577385
rsme: 1.2347579556804684
----------------------
max value: 1.3270199072442206
pred_str: 61, 62, 63, 64, 65, 66, 67, 68, 69, 70, 71, 72, 73, 74, 75, 76, 77, 78, 79, 80, 81, 82, 83, 84, 85, 86, 87, 88, 89, 90, 91, 92, 93, 94, 95, 96, 97, 98, 99, 100, 101, 102, 103, 104, 105, 106, 107, 108, 109, 110, 111, 112, 113, 114, 115, 116, 117, 118, 119, 120, 121, 122, 123, 124, 125, 126, 127, 128, 129, 130, 131, 132, 133, 134, 135, 136, 137, 138, 139, 140, 141, 142, 143, 144, 145, 146, 147, 148, 149, 150, 151, 152, 153, 154, 155, 156, 157, 158, 159, 160, 161, 162, 163, 164, 165, 166, 167, 168, 169, 170, 1
target_str: 58, 51, 43, 36, 35, 41, 50, 59, 68, 77, 79, 74, 68, 52, 38, 18, -5, -24, -38, -41, -44, -49, -54, -57, -63
mse: 1.0380424398554449
mae: 0.7362306445390936
rsme: 1.0188436778306302
----------------------
max value: 1.068059217960615
pred_str: 0, -30, -40, -45, -44, -44, -46, -46, -45, -42, -42, -41, -44, -46, -48, -50, -51, -48, -47, -46, -45, -44, -44, -44, -44, -44, -44, -44, -44, -44, -44, -44, -44, -44, -44, -44, -44, -44, -44, -44, -44, -44, -44, -44, -44, -44, -44, -44, -44, -44, -44, -44, -44, -44, -44, -44, -44, -44, -44, -44, -44, -44, -44, -44, -44, -44, -44, -44, -44, -44, -44, -44, -44, -44, -44, -44, -44, -44, -44, -44, -44, -44, -44, -44, -44, -44, -44, -44, -44, -44, -44, -44, -44, -44, -44, -44, -44, -44, -44, -44, -44, -44, -44, -44, -44, -44, -44, -44, -44, -44, -44, -44, -44, -44, -44, -44, -44, -44, -44, -44, -44, -44, -44, -44, -44, -44, -44, -44, -4
target_str: 41, 50, 71, 85, 85, 65, 52, 49, 23, -16, -29, -28, -28, -31, -39, -47, -47, -43, -37, -34, -40, -45, -65, -93, -77
mse: 0.43304713917750426
mae: 0.4682371611539336
rsme: 0.6580631726342876
----------------------
max value: 1.3977679483467502
pred_str: 75, 76, 77, 78, 79, 80, 81, 82, 83, 84, 85, 86, 87, 88, 89, 90, 91, 92, 93, 94, 95, 96, 97, 98, 99, 100, 101, 102, 103, 104, 105, 106, 107, 108, 109, 110, 111, 112, 113, 114, 115, 116, 117, 118, 119, 120, 121, 122, 123, 124, 125, 126, 127, 128, 129, 130, 131, 132, 133, 134, 135, 136, 137, 138, 139, 140, 141, 142, 143, 144, 145, 146, 147, 148, 149, 150, 151, 152, 153, 154, 155, 156, 157, 158, 159, 160, 161, 162, 163, 164, 165, 166, 167, 168, 169, 170, 171, 172, 173, 174, 175, 176, 177, 178, 179, 180, 181, 18
target_str: 53, 66, 87, 91, 81, 70, 62, 52, 37, 22, 9, 0, -8, -17, -26, -32, -34, -34, -32, -28, -23, -17, -13, -3, 22
mse: 1.457048135904328
mae: 1.0287572099832083
rsme: 1.2070824892708567
----------------------
max value: 0.9033504344950996
pred_str: 1, 0, -1, -1, -2, -3, -4, -4, -5, -5, -5, -6, -7, -7, -8, -9, -9, -10, -10, -11, -12, -12, -13, -13, -14, -14, -15, -15, -16, -16, -17, -17, -18, -18, -19, -19, -20, -20, -21, -21, -22, -22, -23, -23, -24, -24, -25, -25, -26, -26, -27, -27, -28, -28, -29, -29, -30, -30, -31, -31, -32, -32, -33, -33, -34, -34, -35, -35, -36, -36, -37, -37, -38, -38, -39, -39, -40, -40, -41, -41, -42, -42, -43, -43, -44, -44, -45, -45, -46, -46, -47, -47, -48, -48, -49, -49, -50, -50, -51, -51, -52, -52, -53, -53, -54, -54, -55, -55, -56, -56, -57, -57, -58, -58, -59, -59, -60, -60, -61, -61, -62, -62, -63, -63, -64, -64, -65, -65, -66, -66, -67, -67, -6
target_str: 14, 18, 33, 44, 46, 38, 16, -47, -38, -8, -35, -32, -34, -37, -37, -40, -51, -61, -68, -70, -63, -50, -41, -24, -46
mse: 0.10836058609223999
mae: 0.30388708616415144
rsme: 0.32918169161154753
----------------------
max value: 116.84188044500092
pred_str: 49, 68, 66, 55, 42, 24, 10, -3, -15, -24, -31, -36, -35, -30, -23, -14, -5, -1, 2, 11, 20, 30, 43, 57, 66, 69, 62, 45, 23, 9, -4, -17, -29, -37, -43, -43, -38, -29, -19, -12, -6, -2, 3, 12, 21, 30, 43, 56, 64, 66, 59, 41, 22, 7, -3, -16, -25, -34, -42, -41, -33, -22, -12, -5, 1, 8, 16, 24, 34, 46, 57, 66, 68, 60, 43, 24, 8, -5, -16, -24, -32, -40, -40, -32, -21, -12, -5, 1, 8, 16, 24, 34, 46, 57, 66, 68, 60, 43, 24, 8, -5, -16, -24, -32, -40, -40, -32, -21, -12, -5, 1, 8, 16, 24, 34, 46, 57, 66, 68, 60, 43, 24, 8, -5, -16, -24, -32, -40, -40, -32, -21, -12, -5, 1, 8, 1
target_str: -17, 3, 25, 45, 58, 64, 60, 50, 36, 20, 4, -9, -21, -30, -34, -33, -30, -29, -27, -22, -12, 3, 27, 53, 76
mse: 1646.9802991274582
mae: 34.86561712478827
rsme: 40.58300505294622
----------------------
max value: 4.069879745437377
pred_str: 100, 100, 100, 100, 100, 100, 100, 100, 100, 100, 100, 100, 100, 100, 100, 100, 100, 100, 100, 100, 100, 100, 100, 100, 100, 100, 100, 100, 100, 100, 100, 100, 100, 100, 100, 100, 100, 100, 100, 100, 100, 100, 100, 100, 100, 100, 100, 100, 100, 100, 100, 100, 100, 100, 100, 100, 100, 100, 100, 100, 100, 100, 100, 100, 100, 100, 100, 100, 100, 100, 100, 100, 100, 100, 100, 100, 100, 100, 100, 100, 100, 100, 100, 100, 100, 100, 100, 100, 100, 100, 100, 100, 100, 100, 100, 100, 100, 100, 100, 100, 100, 100, 10
target_str: 3, 2, 4, 5, 5, 5, 6, 8, 12, 20, 42, 83, 99, 82, 52, 27, 12, 3, -3, -10, -15, -17, -15, -10, -3
mse: 13.321964240661696
mae: 3.423582841861921
rsme: 3.6499266075719516
----------------------
max value: 1.3421128758198233
pred_str: 02/01/2018 02/08/2018 02/15/2018 02/22/2018 02/29/2018 03/07/2018 03/14/2018 03/21/2018 03/28/2018 04/04/2018 04/11/2018 04/18/2018 04/25/2018 05/02/2018 05/09/2018 05/16/2018 05/23/2018 05/30/2018 06/06/2018 06/13/2018 06/20/2018 06/27/2018 07/04/2018 07/11/2018 07/18/2018 07/25/2018 08/01/2018 08/08/2018 08/15/2018 08/22/2018 08/29/2018 09/05/2018 09/12/2018 09/19/2018 09/26/2018 10/03/2018 10/10/2018 10/17/2018 10/24/2018 10/31/2018 11/07/2018 11/14/2018 11/21/2018 11/28/2018 12/05/2018 12/12/2018 12/19/
target_str: 48, 57, 59, 67, 67, 76, 67, 40, 21, -8, -28, -56, -66, -63, -59, -57, -65, -74, -79, -75, -67, -61, -71, -62, -12
mse: 0.6352204000127373
mae: 0.7542674362107407
rsme: 0.7970071517952253
----------------------
max value: 4.059336781248802
pred_str: 2007/12/29, 2007/1/13, 2007/1/27, 2007/2/10, 2007/2/24, 2007/3/3, 2007/3/17, 2007/3/31, 2007/4/7, 2007/4/14, 2007/4/21, 2007/4/28, 2007/5/5, 2007/5/12, 2007/5/19, 2007/5/26, 2007/6/2, 2007/6/9, 2007/6/16, 2007/6/23, 2007/6/30, 2007/7/7, 2007/7/14, 2007/7/21, 2007/7/28, 2007/8/4, 2007/8/11, 2007/8/18, 2007/8/25, 2007/9/1, 2007/9/8, 2007/9/15, 2007/9/22, 2007/9/29, 2007/10/6, 2007/10/13, 2007/10/20, 2007/10/27, 2007/11/3, 2007/11/10, 2007/11/17, 2007/11/24, 2007/11/30, 2007/12/7, 2007/12/14, 2007/12/21, 2007/
target_str: 1, 2, 2, 1, 1, 7, 22, 62, 96, 96, 60, 25, 12, 2, -1, -4, -7, -11, -15, -17, -15, -6, 4, 34, 69
mse: 2.2468375858059826
mae: 0.9287762555497259
rsme: 1.498945491272442
----------------------
max value: 1.4304087818148197
pred_str: 4/17 - 4/23 : 112, 109, 108, 108, 108, 107, 107, 106, 106, 106, 105, 105, 105, 105, 105, 105, 105, 105, 105, 105, 105, 105, 105, 105, 105, 105, 105, 105, 105, 105, 105, 105, 105, 105, 105, 105, 105, 105, 105, 105, 105, 105, 105, 105, 105, 105, 105, 105, 105, 105, 105, 105, 105, 105, 105, 105, 105, 105, 105, 105, 105, 105, 105, 105, 105, 105, 105, 105, 105, 105, 105, 105, 105, 105, 105, 105, 105, 105, 105, 105, 105, 105, 105, 105, 105, 105, 105, 105, 105, 105, 105, 105, 105, 105, 105, 105, 105, 105, 105, 105, 
target_str: 24, 21, 19, 15, 14, 15, 25, 45, 64, 80, 78, 79, 83, 80, 66, 54, 35, 12, -10, -33, -52, -62, -65, -73, -81
mse: 2.1387153002314054
mae: 1.2656256901497525
rsme: 1.462434716570762
----------------------
max value: 4.099949577202679
pred_str: -6,  -5,  -3,  -1,  -1,  -2,  -2,  -2,  -2,  -2,  -2,  -2,  -2,  -2,  -2,  -2,  -2,  -2,  -2,  -2,  -2,  -2,  -2,  -2,  -2,  -2,  -2,  -2,  -2,  -2,  -2,  -2,  -2,  -2,  -2,  -2,  -2,  -2,  -2,  -2,  -2,  -2,  -2,  -2,  -2,  -2,  -2,  -2,  -2,  -2,  -2,  -2,  -2,  -2,  -2,  -2,  -2,  -2,  -2,  -2,  -2,  -2,  -2,  -2,  -2,  -2,  -2,  -2,  -2,  -2,  -2,  -2,  -2,  -2,  -2,  -2,  -2,  -2,  -2,  -2,  -2,  -2,  -2,  -2,  -2,  -2,  -2,  -2,  -2,  -2,  -2,  -2,  -2,  -2,  -2,  -2,  -2,  -2,  -2,  -2,  -2,  -2,  -2,  -2,  -2,  -2,  -2,  -2,  -2,  -2,  -2,  -2,  -2,  -2,  -2,  -2,  -2,  -2,  -2,  -2,  -2,  -2,  -2,  -2,  -2,  -2,  -2,  -2, 
target_str: 29, 52, 72, 72, 55, 36, 26, 20, 16, 13, 10, 7, 4, 2, 1, 3, 10, 27, 58, 90, 98, 75, 40, 23, 15
mse: 3.616885115692934
mae: 1.4923816461017752
rsme: 1.901811009457284
----------------------
max value: 223.62932948950453
pred_str: 100, 110, 120, 130, 140, 150, 160, 170, 180, 190, 200, 210, 220, 230, 240, 250
target_str: 24, 8, -4, -15, -23, -29, -31, -31, -30, -26, -21, -16, -10, -4, 0, 5, 10, 15, 19, 22, 23, 21, 16, 9, 0
mse: 121325.24698245911
mae: 280.69953437522605
rsme: 348.3177385412048
----------------------
max value: 3.5567151713401364
pred_str: 46, 65, 73, 82, 85, 87, 89, 90, 91, 92, 93, 94, 95, 96, 97, 98, 99, 100, 101, 102, 103, 104, 105, 106, 107, 108, 109, 110, 111, 112, 113, 114, 115, 116, 117, 118, 119, 120, 121, 122, 123, 124, 125, 126, 127, 128, 129, 130, 131, 132, 133, 134, 135, 136, 137, 138, 139, 140, 141, 142, 143, 144, 145, 146, 147, 148, 149, 150, 151, 152, 153, 154, 155, 156, 157, 158, 159, 160, 161, 162, 163, 164, 165, 166, 167, 168, 169, 170, 171, 172, 173, 174, 175, 176, 177, 178, 179, 180, 181, 182, 183, 184, 185, 186, 187, 188,
target_str: 0, 1, 4, 9, 17, 31, 53, 77, 87, 75, 58, 45, 34, 28, 24, 21, 17, 10, 4, -1, -5, -8, -7, -2, 4
mse: 7.232284183174214
mae: 2.4527107821561582
rsme: 2.6892906468387188
----------------------
max value: 0.8701004692292774
pred_str: 11/20, 11/27, 12/4, 12/11, 12/18, 12/25, 12/27, 12/29, 12/31, 1/7, 1/14, 1/21, 1/28, 1/30, 1/31, 1/31, 1/32, 1/33, 1/34, 1/34, 1/35, 1/36, 1/37, 1/37, 1/38, 1/38, 1/38, 1/39, 1/39, 1/40, 1/41, 1/41, 1/42, 1/42, 1/43, 1/43, 1/44, 1/44, 1/45, 1/45, 1/46, 1/46, 1/47, 1/47, 1/48, 1/48, 1/49, 1/49, 1/50, 1/50, 1/51, 1/51, 1/52, 1/52, 1/53, 1/53, 1/54, 1/54, 1/55, 1/55, 1/56, 1/56, 1/57, 1/57, 1/58, 1/58, 1/59, 1/59, 1/60, 1/60, 1/61, 1/61, 1/62, 1/62, 1/63, 1/63, 1/64, 1/64, 1/65, 1/65, 1/66, 1/66, 1/67, 1/67, 1
target_str: -67, -101, -74, 70, 73, 19, 41, 32, 14, 12, 28, 31, 33, 39, 44, 48, 63, 86, 102, 98, 76, 78, 60, -2, -22
mse: 0.27209874926176375
mae: 0.4573248066269081
rsme: 0.5216308553582348
----------------------
max value: 55.41006693244366
pred_str: 10/1, 10/6, 10/11, 10/16, 10/21, 10/26, 10/31, 10/36, 10/41, 10/46, 10/51, 10/56, 10/61, 10/66, 10/71, 10/76, 10/81, 10/86, 10/91, 10/96, 10/101, 10/106, 10/111, 10/116, 10/121, 10/126, 10/131, 10/136, 10/141, 10/146, 10/151, 10/156, 10/161, 10/166, 10/171, 10/176
target_str: -3, -4, -9, -18, -21, -27, -31, -33, -33, -38, -38, -32, -19, 0, 25, 45, 63, 69, 71, 57, 42, 25, 7, -8, -19
mse: 387.4073647928362
mae: 16.33488773168439
rsme: 19.682666607775385
----------------------
max value: 138.5283982537536
pred_str: 30/07/2018 15:41:01, 11/08/2018 09:00:00, 23/08/2018 15:41:01, 09/09/2018 09:00:00, 23/09/2018 15:41:01, 07/10/2018 09:00:00, 21/10/2018 15:41:01, 04/11/2018 09:00:00, 18/11/2018 15:41:01, 26/11/2018 09:00:00, 04/12/2018 09:00:00, 18/12/2018 15:41:01, 25/12/2018 09:00:00, 01/01/2019 09:00:00, 15/01/2019 09:00:00, 29/01/2019 09:00:00, 12/02/2019 09:00:00, 26/02/2019 09:00:00, 11/03/2019 09:00:00, 25/03/2019 09:00:00, 08/04/2019 09:00:00, 22/04/2019 09:00:00, 06/05/2019 09:00:00, 20/05/2019 09:00:00, 03/06/20
target_str: -25, -24, -22, -15, 0, 25, 49, 66, 67, 58, 42, 24, 8, -1, -4, -4, -1, 1, 5, 9, 15, 21, 31, 45, 60
mse: 2068.080542084583
mae: 34.465865485533904
rsme: 45.476153554193466
----------------------
max value: 0.6906413385923199
pred_str: 1, -1, -1, -1, -1, -1, -1, -1, -1, -1, -1, -1, -1, -1, -1, -1, -1, -1, -1, -1, -1, -1, -1, -1, -1, -1, -1, -1, -1, -1, -1, -1, -1, -1, -1, -1, -1, -1, -1, -1, -1, -1, -1, -1, -1, -1, -1, -1, -1, -1, -1, -1, -1, -1, -1, -1, -1, -1, -1, -1, -1, -1, -1, -1, -1, -1, -1, -1, -1, -1, -1, -1, -1, -1, -1, -1, -1, -1, -1, -1, -1, -1, -1, -1, -1, -1, -1, -1, -1, -1, -1, -1, -1, -1, -1, -1, -1, -1, -1, -1, -1, -1, -1, -1, -1, -1, -1, -1, -1, -1, -1, -1, -1, -1, -1, -1, -1, -1, -1, -1, -1, -1, -1, -1, -1, -1, -1, -1, -1, -1, -1, -1, -1, -1, -1, -1, -1, -1, -1, -1, -1, -1, -1, -1, -1, -1, -1, -1, -1, -1, -1, -1, -1, -1, -1, -1, -1, -1, -1, -1, -1, -1, -1, -1, -1, -1, -1, -1, -1, -1, -1,
target_str: -14, -53, -60, -71, -55, -42, -54, -66, -72, -87, -99, -99, -86, -69, -45, -48, -77, -16, 18, 28, 11, -11, -2, 11, 32
mse: 0.15122537772768868
mae: 0.3350991774849936
rsme: 0.38887707277196054
----------------------
max value: 1.2373675175263328
pred_str: 10/11/2017, 10/18/2017, 10/25/2017, 11/1/2017, 11/8/2017, 11/15/2017, 11/22/2017, 11/29/2017, 12/6/2017, 12/13/2017, 12/20/2017, 12/27/2017, 1/3/2018, 1/10/2018, 1/17/2018, 1/24/2018, 1/31/2018, 2/7/2018, 2/14/2018, 2/21/2018, 2/28/2018, 3/7/2018, 3/14/2018, 3/21/2018, 3/28/2018, 4/4/2018, 4/11/2018, 4/18/2018, 4/25/2018, 5/2/2018, 5/9/2018, 5/16/2018, 5/23/2018, 5/30/2018, 6/6/2018, 6/13/2018, 6/20/2018, 6/27/2018, 7/4/2018, 7/11/2018, 7/18/2018, 7/25/2018, 8/1/2018, 8/8/2018, 8/15/2018, 8/22/2018, 8/29/20
target_str: -13, -17, -18, -18, -20, -21, -19, -18, -14, -8, -3, 3, 3, 0, 0, -6, -17, -34, -50, -69, -81, -82, -75, -66, -54
mse: 0.2317623955427369
mae: 0.35091742797046793
rsme: 0.4814170702652087
----------------------
max value: 0.4095369217376126
pred_str: 10/20, 10/27, 11/3, 11/10, 11/17, 11/24, 11/31, 12/7, 12/14, 12/21, 12/28, 12/31, 1/4, 1/11, 1/18, 1/25, 1/31, 1/38, 1/45, 1/52, 1/59, 1/66, 1/73, 1/80, 1/87, 1/94, 1/101, 1/108, 1/115, 1/122, 1/129, 1/136, 1/143, 1/150, 1/157, 1/164, 1/171, 1/178, 1/185, 1/192, 1/199, 1/206, 1/213, 1/220, 1/227, 1/234, 1/241, 1/248, 1/255, 1/262, 1/269, 1/276, 1/283, 1/290, 1/297, 1/304, 1/311, 1/318, 1/325, 1/332, 1/339, 1/346, 1/353, 1/360, 1/367, 1/374, 1/381, 1/388, 1/395, 1/402, 1/409, 1/416, 1/423, 1/429, 1/436, 1/44
target_str: 15, 15, 16, 13, 6, 1, -7, -13, -21, -15, -25, -36, -22, -20, -27, -42, -62, -77, -77, -63, -49, -30, -16, -5, 0
mse: 0.020359254872447982
mae: 0.11024733933176531
rsme: 0.14268586080073942
----------------------
max value: 3.0789129706521985
pred_str: 14, 32, 58, 88, 90, 60, 36, 22, 13, 8, 7, 8, 10, 13, 15, 17, 21, 29, 49, 73, 83, 70, 49, 35, 25, 16, 9, 4, 0, -2, -5, -7, -7, 0, 11, 28, 49, 77, 90, 72, 46, 29, 19, 13, 10, 8, 9, 9, 10, 13, 19, 28, 47, 77, 95, 83, 53, 35, 24
target_str: 7, 6, 5, 4, 6, 12, 17, 22, 30, 43, 54, 58, 52, 38, 25, 16, 13, 15, 18, 16, 9, 6, 10, 23, 40
mse: 1.7046784864588327
mae: 1.0616091922808781
rsme: 1.3056333660177473
----------------------
max value: 1.7578727664155078
pred_str: 1, 15, 29, 44, 60, 66, 67, 66, 64, 62, 61, 60, 61, 58, 56, 53, 49, 47, 45, 44, 44, 45, 46, 49, 54, 56, 55, 55, 56, 57, 58, 59, 60, 61, 61, 62, 63, 65, 66, 67, 68, 69, 70, 70, 71, 71, 72, 72, 73, 74, 75, 76, 77, 78, 78, 79, 80, 81, 82, 83, 84, 84, 85, 86, 86, 87, 88, 89, 90, 91, 92, 93, 94, 95, 96, 97, 98, 99, 100, 101, 102, 103, 104, 105, 106, 107, 108, 109, 110, 111, 112, 113, 114, 115, 116, 117, 118, 119, 120, 121, 122, 123, 124, 125, 126, 127, 128, 129, 130, 131, 132, 133, 134, 135, 136, 137, 138, 139, 1
target_str: 41, 37, 22, 0, -14, -26, -42, -51, -56, -64, -71, -68, -57, -48, -34, 4, 69, 73, 54, 49, 22, 11, 11, 9, 2
mse: 1.8747737793846517
mae: 1.1369921053175505
rsme: 1.369223787181866
----------------------
max value: 261.0921159996241
pred_str: 15/09/2016: 0, -4, -35, -67, -77, -71, -54, -33, -13, 4, 18, 27, 30, 28, 21, 13, 2, -7, -14, -12, -12, -22, -40, -56, -62, -56, -35, -6, 24, 51, 67, 73
target_str: -97, -91, -77, -60, -41, -23, -8, 2, 8, 11, 11, 11, 9, 4, 0, -2, -7, -24, -48, -68, -75, -67, -45, -14, 14
mse: 8670.290605210457
mae: 71.74811347669673
rsme: 93.11439526308732
----------------------
AVG MSE: 4330.285442491422
Median MSE: 2.091645600752002
AVG RMSE: 28.74875079655965
Median RMSE: 1.4461606954234718
AVG MAE: 23.81086368686947
Median MAE: 1.2013088977336515
Number of False Outputs: 50
----------------------
